

x(m), Y
-9.00747e-06, 0.0163394
-8.97748e-06, 0.017121
-8.94748e-06, 0.0180076
-8.91749e-06, 0.0189924
-8.88749e-06, 0.0200649
-8.8575e-06, 0.0212115
-8.82751e-06, 0.0224151
-8.79751e-06, 0.0236559
-8.76752e-06, 0.0249123
-8.73753e-06, 0.0261612
-8.70753e-06, 0.0273804
-8.67754e-06, 0.0285491
-8.64754e-06, 0.0296502
-8.61755e-06, 0.0306721
-8.58756e-06, 0.0316103
-8.55756e-06, 0.0324686
-8.52757e-06, 0.0332603
-8.49758e-06, 0.0340077
-8.46758e-06, 0.0347415
-8.43759e-06, 0.0354983
-8.40759e-06, 0.0363164
-8.3776e-06, 0.0372318
-8.34761e-06, 0.0382727
-8.31761e-06, 0.0394553
-8.28762e-06, 0.0407805
-8.25763e-06, 0.0422334
-8.22763e-06, 0.0437846
-8.19764e-06, 0.0453939
-8.16764e-06, 0.047014
-8.13765e-06, 0.0485956
-8.10766e-06, 0.050092
-8.07766e-06, 0.0514627
-8.04767e-06, 0.0526762
-8.01768e-06, 0.0537124
-7.98768e-06, 0.0545635
-7.95769e-06, 0.0552337
-7.92769e-06, 0.0557386
-7.8977e-06, 0.0561033
-7.86771e-06, 0.0563593
-7.83771e-06, 0.0565418
-7.80772e-06, 0.0566858
-7.77773e-06, 0.0568223
-7.74773e-06, 0.0569758
-7.71774e-06, 0.0571623
-7.68774e-06, 0.0573882
-7.65775e-06, 0.0576517
-7.62776e-06, 0.0579441
-7.59776e-06, 0.0582526
-7.56777e-06, 0.0585634
-7.53778e-06, 0.0588637
-7.50778e-06, 0.0591436
-7.47779e-06, 0.0593973
-7.44779e-06, 0.059622
-7.4178e-06, 0.0598172
-7.38781e-06, 0.0599827
-7.35781e-06, 0.0601159
-7.32782e-06, 0.0602106
-7.29783e-06, 0.0602547
-7.26783e-06, 0.0602298
-7.23784e-06, 0.0601124
-7.20784e-06, 0.0598748
-7.17785e-06, 0.0594881
-7.14786e-06, 0.0589253
-7.11786e-06, 0.0581644
-7.08787e-06, 0.0571921
-7.05788e-06, 0.0560061
-7.02788e-06, 0.0546175
-6.99789e-06, 0.0530521
-6.96789e-06, 0.0513499
-6.9379e-06, 0.0495643
-6.90791e-06, 0.0477589
-6.87791e-06, 0.0460026
-6.84792e-06, 0.0443634
-6.81793e-06, 0.0428993
-6.78793e-06, 0.0416511
-6.75794e-06, 0.0406345
-6.72794e-06, 0.0398363
-6.69795e-06, 0.0392161
-6.66796e-06, 0.0387113
-6.63796e-06, 0.0382464
-6.60797e-06, 0.0377426
-6.57798e-06, 0.0371267
-6.54798e-06, 0.0363375
-6.51799e-06, 0.0353305
-6.48799e-06, 0.0340792
-6.458e-06, 0.0325765
-6.42801e-06, 0.0308335
-6.39801e-06, 0.0288788
-6.36802e-06, 0.0267569
-6.33803e-06, 0.0245266
-6.30803e-06, 0.0222604
-6.27804e-06, 0.0200427
-6.24804e-06, 0.0179688
-6.21805e-06, 0.0161408
-6.18806e-06, 0.0146581
-6.15806e-06, 0.0135977
-6.12807e-06, 0.012988
-6.09808e-06, 0.0127897
-6.06808e-06, 0.0129047
-6.03809e-06, 0.0132069
-6.00809e-06, 0.0135759
-5.9781e-06, 0.0139145
-5.94811e-06, 0.0141536
-5.91811e-06, 0.0142492
-5.88812e-06, 0.0141784
-5.85813e-06, 0.0139351
-5.82813e-06, 0.0135279
-5.79814e-06, 0.0129798
-5.76814e-06, 0.0123281
-5.73815e-06, 0.0116261
-5.70816e-06, 0.0109451
-5.67816e-06, 0.0103727
-5.64817e-06, 0.0100041
-5.61818e-06, 0.00992121
-5.58818e-06, 0.0101646
-5.55819e-06, 0.0107161
-5.52819e-06, 0.0115083
-5.4982e-06, 0.012449
-5.46821e-06, 0.013445
-5.43821e-06, 0.0144147
-5.40822e-06, 0.015292
-5.37823e-06, 0.0160284
-5.34823e-06, 0.0165921
-5.31824e-06, 0.0169696
-5.28824e-06, 0.0171652
-5.25825e-06, 0.0172025
-5.22826e-06, 0.0171242
-5.19826e-06, 0.0169907
-5.16827e-06, 0.0168757
-5.13828e-06, 0.0168578
-5.10828e-06, 0.0170071
-5.07829e-06, 0.0173702
-5.04829e-06, 0.0179586
-5.0183e-06, 0.018746
-4.98831e-06, 0.0196759
-4.95831e-06, 0.0206737
-4.92832e-06, 0.0216595
-4.89833e-06, 0.0225583
-4.86833e-06, 0.0233056
-4.83834e-06, 0.0238521
-4.80834e-06, 0.0241648
-4.77835e-06, 0.0242283
-4.74836e-06, 0.024045
-4.71836e-06, 0.0236348
-4.68837e-06, 0.0230341
-4.65838e-06, 0.0222938
-4.62838e-06, 0.0214763
-4.59839e-06, 0.0206509
-4.56839e-06, 0.0198871
-4.5384e-06, 0.0192453
-4.50841e-06, 0.0187678
-4.47841e-06, 0.0184709
-4.44842e-06, 0.0183426
-4.41843e-06, 0.0183473
-4.38843e-06, 0.0184348
-4.35844e-06, 0.0185521
-4.32845e-06, 0.0186529
-4.29845e-06, 0.0187036
-4.26846e-06, 0.0186864
-4.23846e-06, 0.0185997
-4.20847e-06, 0.0184551
-4.17848e-06, 0.0182748
-4.14848e-06, 0.0180857
-4.11849e-06, 0.0179141
-4.0885e-06, 0.0177804
-4.0585e-06, 0.0176952
-4.02851e-06, 0.0176573
-3.99851e-06, 0.0176555
-3.96852e-06, 0.0176724
-3.93853e-06, 0.0176898
-3.90853e-06, 0.0176948
-3.87854e-06, 0.0176839
-3.84855e-06, 0.0176668
-3.81855e-06, 0.0176666
-3.78856e-06, 0.017718
-3.75856e-06, 0.0178615
-3.72857e-06, 0.0181357
-3.69858e-06, 0.0185685
-3.66858e-06, 0.019169
-3.63859e-06, 0.0199252
-3.6086e-06, 0.0208054
-3.5786e-06, 0.0217639
-3.54861e-06, 0.0227491
-3.51861e-06, 0.0237102
-3.48862e-06, 0.0246029
-3.45863e-06, 0.0253937
-3.42863e-06, 0.0260621
-3.39864e-06, 0.0266009
-3.36865e-06, 0.0270163
-3.33865e-06, 0.0273259
-3.30866e-06, 0.027555
-3.27866e-06, 0.0277329
-3.24867e-06, 0.0278873
-3.21868e-06, 0.0280393
-3.18868e-06, 0.028199
-3.15869e-06, 0.0283629
-3.1287e-06, 0.0285134
-3.0987e-06, 0.0286217
-3.06871e-06, 0.028651
-3.03871e-06, 0.0285626
-3.00872e-06, 0.028321
-2.97873e-06, 0.0278989
-2.94873e-06, 0.0272823
-2.91874e-06, 0.0264741
-2.88875e-06, 0.0254971
-2.85875e-06, 0.0243961
-2.82876e-06, 0.0232401
-2.79876e-06, 0.0221206
-2.76877e-06, 0.021147
-2.73878e-06, 0.0204338
-2.70878e-06, 0.020079
-2.67879e-06, 0.0201388
-2.6488e-06, 0.0206087
-2.6188e-06, 0.0214253
-2.58881e-06, 0.022485
-2.55881e-06, 0.0236695
-2.52882e-06, 0.0248654
-2.49883e-06, 0.0259745
-2.46883e-06, 0.0269183
-2.43884e-06, 0.0276379
-2.40885e-06, 0.0280924
-2.37885e-06, 0.0282568
-2.34886e-06, 0.0281202
-2.31886e-06, 0.0276831
-2.28887e-06, 0.026956
-2.25888e-06, 0.0259573
-2.22888e-06, 0.0247125
-2.19889e-06, 0.0232534
-2.1689e-06, 0.0216182
-2.1389e-06, 0.0198534
-2.10891e-06, 0.0180173
-2.07891e-06, 0.016185
-2.04892e-06, 0.0144584
-2.01893e-06, 0.0129736
-1.98893e-06, 0.0119012
-1.95894e-06, 0.0114117
-1.92895e-06, 0.0115982
-1.89895e-06, 0.0124136
-1.86896e-06, 0.013698
-1.83896e-06, 0.0152612
-1.80897e-06, 0.0169365
-1.77898e-06, 0.0185942
-1.74898e-06, 0.020136
-1.71899e-06, 0.0214882
-1.689e-06, 0.0225963
-1.659e-06, 0.0234225
-1.62901e-06, 0.0239446
-1.59901e-06, 0.0241557
-1.56902e-06, 0.0240652
-1.53903e-06, 0.0236992
-1.50903e-06, 0.0231016
-1.47904e-06, 0.0223352
-1.44905e-06, 0.0214808
-1.41905e-06, 0.0206367
-1.38906e-06, 0.0199119
-1.35906e-06, 0.0194154
-1.32907e-06, 0.019237
-1.29908e-06, 0.0194279
-1.26908e-06, 0.0199874
-1.23909e-06, 0.0208661
-1.2091e-06, 0.0219827
-1.1791e-06, 0.023243
-1.14911e-06, 0.0245558
-1.11911e-06, 0.0258406
-1.08912e-06, 0.0270308
-1.05913e-06, 0.0280728
-1.02913e-06, 0.0289245
-9.99139e-07, 0.0295528
-9.69145e-07, 0.0299318
-9.39152e-07, 0.0300408
-9.09158e-07, 0.0298627
-8.79164e-07, 0.0293838
-8.4917e-07, 0.0285929
-8.19177e-07, 0.0274819
-7.89183e-07, 0.0260459
-7.59189e-07, 0.0242846
-7.29195e-07, 0.0222031
-6.99202e-07, 0.0198132
-6.69208e-07, 0.0171347
-6.39214e-07, 0.0141977
-6.0922e-07, 0.011047
-5.79227e-07, 0.00775816
-5.49233e-07, 0.0045258
-5.19239e-07, 0.00249511
-4.89245e-07, 0.00438747
-4.59252e-07, 0.00772642
-4.29258e-07, 0.0112221
-3.99264e-07, 0.0146507
-3.6927e-07, 0.0179172
-3.39277e-07, 0.020957
-3.09283e-07, 0.0237196
-2.79289e-07, 0.0261653
-2.49295e-07, 0.0282648
-2.19302e-07, 0.0299988
-1.89308e-07, 0.0313582
-1.59314e-07, 0.0323433
-1.2932e-07, 0.0329634
-9.93266e-08, 0.0332352
-6.93329e-08, 0.0331822
-3.93392e-08, 0.032833
-9.3454e-09, 0.0322206
2.06483e-08, 0.0313816
5.06421e-08, 0.0303563
8.06358e-08, 0.02919
1.1063e-07, 0.0279346
1.40623e-07, 0.0266517
1.70617e-07, 0.0254157
2.00611e-07, 0.0243162
2.30605e-07, 0.0234567
2.60598e-07, 0.0229462
2.90592e-07, 0.0228824
3.20586e-07, 0.0233287
3.5058e-07, 0.0242962
3.80573e-07, 0.0257409
4.10567e-07, 0.0275766
4.40561e-07, 0.0296949
4.70555e-07, 0.0319825
5.00548e-07, 0.034331
5.30542e-07, 0.0366428
5.60536e-07, 0.0388328
5.9053e-07, 0.0408291
6.20523e-07, 0.0425731
6.50517e-07, 0.0440187
6.80511e-07, 0.0451326
7.10505e-07, 0.045893
7.40498e-07, 0.0462891
7.70492e-07, 0.0463195
8.00486e-07, 0.0459911
8.3048e-07, 0.0453171
8.60473e-07, 0.0443155
8.90467e-07, 0.0430073
9.20461e-07, 0.0414152
9.50455e-07, 0.0395627
9.80448e-07, 0.0374741
1.01044e-06, 0.0351753
1.04044e-06, 0.0326957
1.07043e-06, 0.0300722
1.10042e-06, 0.0273548
1.13042e-06, 0.0246163
1.16041e-06, 0.0219662
1.1904e-06, 0.0195696
1.2204e-06, 0.0176647
1.25039e-06, 0.0165471
1.28039e-06, 0.0164743
1.31038e-06, 0.0175127
1.34037e-06, 0.019494
1.37037e-06, 0.0221355
1.40036e-06, 0.0251683
1.43035e-06, 0.0283831
1.46035e-06, 0.0316261
1.49034e-06, 0.0347847
1.52034e-06, 0.0377758
1.55033e-06, 0.0405379
1.58032e-06, 0.0430271
1.61032e-06, 0.0452142
1.64031e-06, 0.0470826
1.6703e-06, 0.0486276
1.7003e-06, 0.049854
1.73029e-06, 0.0507754
1.76029e-06, 0.0514124
1.79028e-06, 0.0517913
1.82027e-06, 0.0519428
1.85027e-06, 0.0518998
1.88026e-06, 0.0516973
1.91025e-06, 0.0513707
1.94025e-06, 0.0509548
1.97024e-06, 0.0504833
2.00024e-06, 0.0499872
2.03023e-06, 0.0494948
2.06022e-06, 0.0490298
2.09022e-06, 0.0486108
2.12021e-06, 0.0482495
2.1502e-06, 0.0479501
2.1802e-06, 0.0477089
2.21019e-06, 0.0475136
2.24019e-06, 0.0473443
2.27018e-06, 0.0471749
2.30017e-06, 0.0469748
2.33017e-06, 0.0467116
2.36016e-06, 0.046353
2.39015e-06, 0.0458702
2.42015e-06, 0.0452395
2.45014e-06, 0.0444446
2.48014e-06, 0.0434785
2.51013e-06, 0.0423446
2.54012e-06, 0.0410582
2.57012e-06, 0.039648
2.60011e-06, 0.0381573
2.6301e-06, 0.0366454
2.6601e-06, 0.0351888
2.69009e-06, 0.0338816
2.72009e-06, 0.0328332
2.75008e-06, 0.0321607
2.78007e-06, 0.0319759
2.81007e-06, 0.0323666
2.84006e-06, 0.0333794
2.87005e-06, 0.0350103
2.90005e-06, 0.0372087
2.93004e-06, 0.0398906
2.96004e-06, 0.042953
2.99003e-06, 0.0462866
3.02002e-06, 0.0497821
3.05002e-06, 0.0533344
3.08001e-06, 0.0568439
3.11e-06, 0.060217
3.14e-06, 0.0633668
3.16999e-06, 0.0662142
3.19999e-06, 0.0686882
3.22998e-06, 0.0707276
3.25997e-06, 0.0722814
3.28997e-06, 0.0733102
3.31996e-06, 0.0737866
3.34995e-06, 0.073695
3.37995e-06, 0.073032
3.40994e-06, 0.0718052
3.43994e-06, 0.0700324
3.46993e-06, 0.0677401
3.49992e-06, 0.0649614
3.52992e-06, 0.061735
3.55991e-06, 0.0581031
3.5899e-06, 0.0541106
3.6199e-06, 0.0498047
3.64989e-06, 0.0452369
3.67989e-06, 0.0404663
3.70988e-06, 0.0355681
3.73987e-06, 0.0306507
3.76987e-06, 0.0258893
3.79986e-06, 0.0215935
3.82985e-06, 0.0183137
3.85985e-06, 0.016859
3.88984e-06, 0.0178267
3.91984e-06, 0.0209516
3.94983e-06, 0.0254567
3.97982e-06, 0.0306955
4.00982e-06, 0.0362667
4.03981e-06, 0.041923
4.0698e-06, 0.0474963
4.0998e-06, 0.0528614
4.12979e-06, 0.0579181
4.15979e-06, 0.0625841
4.18978e-06, 0.0667914
4.21977e-06, 0.0704857
4.24977e-06, 0.0736261
4.27976e-06, 0.0761848
4.30975e-06, 0.0781465
4.33975e-06, 0.0795085
4.36974e-06, 0.0802792
4.39974e-06, 0.0804771
4.42973e-06, 0.0801288
4.45972e-06, 0.079268
4.48972e-06, 0.0779331
4.51971e-06, 0.0761666
4.5497e-06, 0.0740134
4.5797e-06, 0.0715204
4.60969e-06, 0.0687368
4.63969e-06, 0.0657145
4.66968e-06, 0.0625099
4.69967e-06, 0.0591857
4.72967e-06, 0.0558136
4.75966e-06, 0.052477
4.78965e-06, 0.0492731
4.81965e-06, 0.0463141
4.84964e-06, 0.0437239
4.87964e-06, 0.0416302
4.90963e-06, 0.040148
4.93962e-06, 0.0393585
4.96962e-06, 0.0392876
4.99961e-06, 0.039897
5.0296e-06, 0.0410917
5.0596e-06, 0.0427414
5.08959e-06, 0.0447049
5.11959e-06, 0.0468484
5.14958e-06, 0.0490574
5.17957e-06, 0.0512397
5.20957e-06, 0.053327
5.23956e-06, 0.0552717
5.26955e-06, 0.0570456
5.29955e-06, 0.0586361
5.32954e-06, 0.0600436
5.35954e-06, 0.0612791
5.38953e-06, 0.0623615
5.41952e-06, 0.0633147
5.44952e-06, 0.0641659
5.47951e-06, 0.0649428
5.5095e-06, 0.0656719
5.5395e-06, 0.0663764
5.56949e-06, 0.0670746
5.59949e-06, 0.0677783
5.62948e-06, 0.068492
5.65947e-06, 0.0692121
5.68947e-06, 0.0699269
5.71946e-06, 0.0706169
5.74945e-06, 0.0712556
5.77945e-06, 0.071811
5.80944e-06, 0.0722474
5.83944e-06, 0.0725272
5.86943e-06, 0.0726132
5.89942e-06, 0.0724711
5.92942e-06, 0.0720711
5.95941e-06, 0.0713904
5.9894e-06, 0.0704146
6.0194e-06, 0.0691395
6.04939e-06, 0.0675722
6.07939e-06, 0.0657323
6.10938e-06, 0.0636532
6.13937e-06, 0.0613828
6.16937e-06, 0.0589851
6.19936e-06, 0.0565409
6.22935e-06, 0.0541492
6.25935e-06, 0.051927
6.28934e-06, 0.0500069
6.31934e-06, 0.0485308
6.34933e-06, 0.0476369
6.37932e-06, 0.0474416
6.40932e-06, 0.0480191
6.43931e-06, 0.0493869
6.4693e-06, 0.0515033
6.4993e-06, 0.0542775
6.52929e-06, 0.0575869
6.55929e-06, 0.0612931
6.58928e-06, 0.0652546
6.61927e-06, 0.069334
6.64927e-06, 0.0734015
6.67926e-06, 0.0773363
6.70925e-06, 0.0810277
6.73925e-06, 0.084375
6.76924e-06, 0.0872889
6.79924e-06, 0.0896917
6.82923e-06, 0.0915187
6.85922e-06, 0.0927188
6.88922e-06, 0.0932553
6.91921e-06, 0.0931065
6.9492e-06, 0.0922658
6.9792e-06, 0.0907417
7.00919e-06, 0.0885572
7.03919e-06, 0.0857492
7.06918e-06, 0.0823681
7.09917e-06, 0.0784769
7.12917e-06, 0.0741517
7.15916e-06, 0.0694822
7.18915e-06, 0.0645744
7.21915e-06, 0.0595554
7.24914e-06, 0.0545803
7.27914e-06, 0.0498436
7.30913e-06, 0.0455892
7.33912e-06, 0.0421149
7.36912e-06, 0.0397494
7.39911e-06, 0.0387831
7.4291e-06, 0.0393646
7.4591e-06, 0.041431
7.48909e-06, 0.0447397
7.51909e-06, 0.0489684
7.54908e-06, 0.053801
7.57907e-06, 0.058967
7.60907e-06, 0.064247
7.63906e-06, 0.0694649
7.66905e-06, 0.0744781
7.69905e-06, 0.0791701
7.72904e-06, 0.0834452
7.75904e-06, 0.0872258
7.78903e-06, 0.0904499
7.81902e-06, 0.0930706
7.84902e-06, 0.095055
7.87901e-06, 0.0963837
7.909e-06, 0.0970499
7.939e-06, 0.0970585
7.96899e-06, 0.0964253
7.99899e-06, 0.095176
8.02898e-06, 0.0933449
8.05897e-06, 0.0909747
8.08897e-06, 0.0881158
8.11896e-06, 0.0848266
8.14895e-06, 0.081174
8.17895e-06, 0.0772354
8.20894e-06, 0.0731005
8.23894e-06, 0.0688752
8.26893e-06, 0.0646847
8.29892e-06, 0.0606776
8.32892e-06, 0.0570265
8.35891e-06, 0.0539236
8.3889e-06, 0.0515665
8.4189e-06, 0.0501289
8.44889e-06, 0.0497237
8.47889e-06, 0.0503703
8.50888e-06, 0.0519871
8.53887e-06, 0.0544134
8.56887e-06, 0.0574471
8.59886e-06, 0.0608811
8.62885e-06, 0.0645257
8.65885e-06, 0.0682197
8.68884e-06, 0.0718325
8.71884e-06, 0.0752628
8.74883e-06, 0.078435
8.77882e-06, 0.0812966
8.80882e-06, 0.0838145
8.83881e-06, 0.0859721
8.8688e-06, 0.0877669
8.8988e-06, 0.0892078
8.92879e-06, 0.0903132
8.95879e-06, 0.0911079
8.98878e-06, 0.0916223
9.01877e-06, 0.0918894
9.04877e-06, 0.0919441
9.07876e-06, 0.0918209
9.10875e-06, 0.0915534
9.13875e-06, 0.0911722
9.16874e-06, 0.0907048
9.19874e-06, 0.0901738
9.22873e-06, 0.0895968
9.25872e-06, 0.0889853
9.28872e-06, 0.0883446
9.31871e-06, 0.087674
9.3487e-06, 0.0869668
9.3787e-06, 0.0862112
9.40869e-06, 0.085392
9.43868e-06, 0.0844918
9.46868e-06, 0.0834936
9.49867e-06, 0.0823827
9.52867e-06, 0.0811493
9.55866e-06, 0.079791
9.58865e-06, 0.0783145
9.61865e-06, 0.0767382
9.64864e-06, 0.0750936
9.67863e-06, 0.0734261
9.70863e-06, 0.0717952
9.73862e-06, 0.0702739
9.76862e-06, 0.0689461
9.79861e-06, 0.0679026
9.8286e-06, 0.0672344
9.8586e-06, 0.0670247
9.88859e-06, 0.06734
9.91858e-06, 0.0682216
9.94858e-06, 0.0696805
9.97857e-06, 0.0716957
1.00086e-05, 0.0742171
1.00386e-05, 0.0771712
1.00686e-05, 0.0804679
1.00985e-05, 0.084007
1.01285e-05, 0.0876837
1.01585e-05, 0.0913928
1.01885e-05, 0.0950311
1.02185e-05, 0.0984999
1.02485e-05, 0.101706
1.02785e-05, 0.104564
1.03085e-05, 0.106996
1.03385e-05, 0.108934
1.03685e-05, 0.110319
1.03985e-05, 0.111103
1.04285e-05, 0.111253
1.04585e-05, 0.110744
1.04885e-05, 0.109568
1.05185e-05, 0.107728
1.05485e-05, 0.105239
1.05784e-05, 0.102133
1.06084e-05, 0.0984523
1.06384e-05, 0.0942545
1.06684e-05, 0.0896123
1.06984e-05, 0.0846156
1.07284e-05, 0.0793755
1.07584e-05, 0.0740292
1.07884e-05, 0.0687481
1.08184e-05, 0.0637458
1.08484e-05, 0.0592847
1.08784e-05, 0.055672
1.09084e-05, 0.0532312
1.09384e-05, 0.0522397
1.09684e-05, 0.0528451
1.09984e-05, 0.0550103
1.10284e-05, 0.0585286
1.10583e-05, 0.0630964
1.10883e-05, 0.0683889
1.11183e-05, 0.0741066
1.11483e-05, 0.0799926
1.11783e-05, 0.0858328
1.12083e-05, 0.0914507
1.12383e-05, 0.0967014
1.12683e-05, 0.101466
1.12983e-05, 0.10565
1.13283e-05, 0.10918
1.13583e-05, 0.112
1.13883e-05, 0.114075
1.14183e-05, 0.115386
1.14483e-05, 0.11593
1.14783e-05, 0.11572
1.15083e-05, 0.114782
1.15382e-05, 0.113154
1.15682e-05, 0.110888
1.15982e-05, 0.108043
1.16282e-05, 0.104688
1.16582e-05, 0.100903
1.16882e-05, 0.0967765
1.17182e-05, 0.0924083
1.17482e-05, 0.0879107
1.17782e-05, 0.083411
1.18082e-05, 0.0790533
1.18382e-05, 0.0749988
1.18682e-05, 0.0714227
1.18982e-05, 0.0685047
1.19282e-05, 0.0664114
1.19582e-05, 0.0652712
1.19882e-05, 0.0651486
1.20181e-05, 0.0660272
1.20481e-05, 0.0678112
1.20781e-05, 0.0703439
1.21081e-05, 0.0734352
1.21381e-05, 0.0768868
1.21681e-05, 0.0805115
1.21981e-05, 0.0841428
1.22281e-05, 0.0876398
1.22581e-05, 0.0908881
1.22881e-05, 0.0937988
1.23181e-05, 0.096307
1.23481e-05, 0.0983701
1.23781e-05, 0.0999651
1.24081e-05, 0.101088
1.24381e-05, 0.10175
1.24681e-05, 0.101978
1.2498e-05, 0.101811
1.2528e-05, 0.101298
1.2558e-05, 0.100498
1.2588e-05, 0.0994744
1.2618e-05, 0.0982973
1.2648e-05, 0.0970381
1.2678e-05, 0.095768
1.2708e-05, 0.0945551
1.2738e-05, 0.0934615
1.2768e-05, 0.0925396
1.2798e-05, 0.0918295
1.2828e-05, 0.0913562
1.2858e-05, 0.0911279
1.2888e-05, 0.0911357
1.2918e-05, 0.091354
1.2948e-05, 0.0917434
1.29779e-05, 0.0922534
1.30079e-05, 0.092827
1.30379e-05, 0.0934045
1.30679e-05, 0.0939276
1.30979e-05, 0.0943433
1.31279e-05, 0.0946066
1.31579e-05, 0.0946835
1.31879e-05, 0.0945521
1.32179e-05, 0.0942041
1.32479e-05, 0.0936452
1.32779e-05, 0.0928957
1.33079e-05, 0.0919894
1.33379e-05, 0.0909734
1.33679e-05, 0.0899061
1.33979e-05, 0.0888555
1.34279e-05, 0.0878961
1.34578e-05, 0.087105
1.34878e-05, 0.0865576
1.35178e-05, 0.0863214
1.35478e-05, 0.0864515
1.35778e-05, 0.086984
1.36078e-05, 0.0879333
1.36378e-05, 0.0892891
1.36678e-05, 0.0910176
1.36978e-05, 0.0930631
1.37278e-05, 0.0953528
1.37578e-05, 0.0978013
1.37878e-05, 0.100316
1.38178e-05, 0.102801
1.38478e-05, 0.105162
1.38778e-05, 0.107311
1.39078e-05, 0.109167
1.39377e-05, 0.11066
1.39677e-05, 0.111731
1.39977e-05, 0.112335
1.40277e-05, 0.112442
1.40577e-05, 0.112038
1.40877e-05, 0.111125
1.41177e-05, 0.109719
1.41477e-05, 0.107855
1.41777e-05, 0.105585
1.42077e-05, 0.102973
1.42377e-05, 0.100104
1.42677e-05, 0.0970762
1.42977e-05, 0.0940032
1.43277e-05, 0.0910121
1.43577e-05, 0.0882402
1.43877e-05, 0.0858294
1.44176e-05, 0.083918
1.44476e-05, 0.0826293
1.44776e-05, 0.0820581
1.45076e-05, 0.0822588
1.45376e-05, 0.0832368
1.45676e-05, 0.0849478
1.45976e-05, 0.0873032
1.46276e-05, 0.090182
1.46576e-05, 0.0934426
1.46876e-05, 0.0969356
1.47176e-05, 0.100513
1.47476e-05, 0.104033
1.47776e-05, 0.107368
1.48076e-05, 0.110402
1.48376e-05, 0.113037
1.48676e-05, 0.115191
1.48975e-05, 0.116798
1.49275e-05, 0.117812
1.49575e-05, 0.118204
1.49875e-05, 0.117961
1.50175e-05, 0.117091
1.50475e-05, 0.115617
1.50775e-05, 0.113583
1.51075e-05, 0.111048
1.51375e-05, 0.108088
1.51675e-05, 0.104801
1.51975e-05, 0.101296
1.52275e-05, 0.0977046
1.52575e-05, 0.0941713
1.52875e-05, 0.0908542
1.53175e-05, 0.0879187
1.53475e-05, 0.0855272
1.53774e-05, 0.0838266
1.54074e-05, 0.0829306
1.54374e-05, 0.0829045
1.54674e-05, 0.0837539
1.54974e-05, 0.0854246
1.55274e-05, 0.0878101
1.55574e-05, 0.0907677
1.55874e-05, 0.0941348
1.56174e-05, 0.0977441
1.56474e-05, 0.101434
1.56774e-05, 0.105057
1.57074e-05, 0.10848
1.57374e-05, 0.111591
1.57674e-05, 0.114295
1.57974e-05, 0.116517
1.58274e-05, 0.1182
1.58573e-05, 0.119307
1.58873e-05, 0.119817
1.59173e-05, 0.119726
1.59473e-05, 0.119048
1.59773e-05, 0.117812
1.60073e-05, 0.11606
1.60373e-05, 0.113854
1.60673e-05, 0.111267
1.60973e-05, 0.108386
1.61273e-05, 0.105313
1.61573e-05, 0.102162
1.61873e-05, 0.099058
1.62173e-05, 0.0961339
1.62473e-05, 0.0935255
1.62773e-05, 0.0913635
1.63073e-05, 0.0897641
1.63372e-05, 0.0888169
1.63672e-05, 0.0885746
1.63972e-05, 0.0890454
1.64272e-05, 0.0901914
1.64572e-05, 0.0919334
1.64872e-05, 0.0941606
1.65172e-05, 0.0967427
1.65472e-05, 0.0995412
1.65772e-05, 0.102419
1.66072e-05, 0.10525
1.66372e-05, 0.107918
1.66672e-05, 0.110327
1.66972e-05, 0.112396
1.67272e-05, 0.114067
1.67572e-05, 0.115295
1.67872e-05, 0.116057
1.68171e-05, 0.116347
1.68471e-05, 0.116174
1.68771e-05, 0.115566
1.69071e-05, 0.114562
1.69371e-05, 0.113218
1.69671e-05, 0.1116
1.69971e-05, 0.109786
