

x(m), Y
-9.00747e-06, 0.0143144
-8.97748e-06, 0.0147566
-8.94748e-06, 0.0154042
-8.91749e-06, 0.0162685
-8.88749e-06, 0.0173512
-8.8575e-06, 0.0186441
-8.82751e-06, 0.0201298
-8.79751e-06, 0.0217819
-8.76752e-06, 0.0235669
-8.73753e-06, 0.0254444
-8.70753e-06, 0.0273689
-8.67754e-06, 0.0292908
-8.64754e-06, 0.0311583
-8.61755e-06, 0.0329197
-8.58756e-06, 0.0345252
-8.55756e-06, 0.0359307
-8.52757e-06, 0.0371002
-8.49758e-06, 0.0380097
-8.46758e-06, 0.0386505
-8.43759e-06, 0.0390326
-8.40759e-06, 0.0391879
-8.3776e-06, 0.0391723
-8.34761e-06, 0.0390655
-8.31761e-06, 0.0389685
-8.28762e-06, 0.0389957
-8.25763e-06, 0.0392626
-8.22763e-06, 0.0398675
-8.19764e-06, 0.0408744
-8.16764e-06, 0.0422994
-8.13765e-06, 0.0441078
-8.10766e-06, 0.0462218
-8.07766e-06, 0.0485335
-8.04767e-06, 0.0509214
-8.01768e-06, 0.053263
-7.98768e-06, 0.0554453
-7.95769e-06, 0.0573714
-7.92769e-06, 0.0589651
-7.8977e-06, 0.0601729
-7.86771e-06, 0.0609657
-7.83771e-06, 0.0613394
-7.80772e-06, 0.0613136
-7.77773e-06, 0.0609312
-7.74773e-06, 0.0602555
-7.71774e-06, 0.0593674
-7.68774e-06, 0.0583602
-7.65775e-06, 0.0573341
-7.62776e-06, 0.0563884
-7.59776e-06, 0.0556132
-7.56777e-06, 0.0550808
-7.53778e-06, 0.0548386
-7.50778e-06, 0.0549049
-7.47779e-06, 0.0552687
-7.44779e-06, 0.0558939
-7.4178e-06, 0.0567253
-7.38781e-06, 0.0576965
-7.35781e-06, 0.0587364
-7.32782e-06, 0.0597746
-7.29783e-06, 0.0607445
-7.26783e-06, 0.0615847
-7.23784e-06, 0.0622401
-7.20784e-06, 0.0626613
-7.17785e-06, 0.0628047
-7.14786e-06, 0.0626334
-7.11786e-06, 0.0621168
-7.08787e-06, 0.0612329
-7.05788e-06, 0.0599697
-7.02788e-06, 0.058327
-6.99789e-06, 0.0563195
-6.96789e-06, 0.0539785
-6.9379e-06, 0.0513554
-6.90791e-06, 0.0485233
-6.87791e-06, 0.0455796
-6.84792e-06, 0.0426462
-6.81793e-06, 0.0398672
-6.78793e-06, 0.0374013
-6.75794e-06, 0.0354047
-6.72794e-06, 0.034003
-6.69795e-06, 0.0332583
-6.66796e-06, 0.033145
-6.63796e-06, 0.0335516
-6.60797e-06, 0.034307
-6.57798e-06, 0.0352181
-6.54798e-06, 0.0361008
-6.51799e-06, 0.036798
-6.48799e-06, 0.0371869
-6.458e-06, 0.0371794
-6.42801e-06, 0.0367198
-6.39801e-06, 0.0357812
-6.36802e-06, 0.0343621
-6.33803e-06, 0.0324823
-6.30803e-06, 0.0301802
-6.27804e-06, 0.027509
-6.24804e-06, 0.0245345
-6.21805e-06, 0.0213327
-6.18806e-06, 0.0179897
-6.15806e-06, 0.014605
-6.12807e-06, 0.0113054
-6.09808e-06, 0.00828941
-6.06808e-06, 0.00596451
-6.03809e-06, 0.00511915
-6.00809e-06, 0.00608656
-5.9781e-06, 0.00797452
-5.94811e-06, 0.0100416
-5.91811e-06, 0.0119858
-5.88812e-06, 0.0136827
-5.85813e-06, 0.0150732
-5.82813e-06, 0.0161275
-5.79814e-06, 0.0168323
-5.76814e-06, 0.0171865
-5.73815e-06, 0.0171993
-5.70816e-06, 0.0168914
-5.67816e-06, 0.0162962
-5.64817e-06, 0.0154626
-5.61818e-06, 0.0144598
-5.58818e-06, 0.0133822
-5.55819e-06, 0.0123546
-5.52819e-06, 0.0115299
-5.4982e-06, 0.0110663
-5.46821e-06, 0.0110754
-5.43821e-06, 0.0115657
-5.40822e-06, 0.0124368
-5.37823e-06, 0.0135311
-5.34823e-06, 0.0146883
-5.31824e-06, 0.0157737
-5.28824e-06, 0.0166851
-5.25825e-06, 0.0173524
-5.22826e-06, 0.0177366
-5.19826e-06, 0.0178298
-5.16827e-06, 0.0176575
-5.13828e-06, 0.0172821
-5.10828e-06, 0.016806
-5.07829e-06, 0.01637
-5.04829e-06, 0.0161406
-5.0183e-06, 0.0162769
-4.98831e-06, 0.0168812
-4.95831e-06, 0.0179613
-4.92832e-06, 0.0194326
-4.89833e-06, 0.0211524
-4.86833e-06, 0.0229603
-4.83834e-06, 0.0247033
-4.80834e-06, 0.0262479
-4.77835e-06, 0.0274836
-4.74836e-06, 0.0283247
-4.71836e-06, 0.0287094
-4.68837e-06, 0.0286008
-4.65838e-06, 0.0279864
-4.62838e-06, 0.0268787
-4.59839e-06, 0.025316
-4.56839e-06, 0.0233634
-4.5384e-06, 0.021117
-4.50841e-06, 0.01871
-4.47841e-06, 0.0163262
-4.44842e-06, 0.0142162
-4.41843e-06, 0.012698
-4.38843e-06, 0.0120772
-4.35844e-06, 0.0124563
-4.32845e-06, 0.0136348
-4.29845e-06, 0.0152625
-4.26846e-06, 0.0170265
-4.23846e-06, 0.018708
-4.20847e-06, 0.0201688
-4.17848e-06, 0.0213277
-4.14848e-06, 0.0221439
-4.11849e-06, 0.0226067
-4.0885e-06, 0.0227283
-4.0585e-06, 0.0225392
-4.02851e-06, 0.0220837
-3.99851e-06, 0.0214157
-3.96852e-06, 0.0205953
-3.93853e-06, 0.0196849
-3.90853e-06, 0.0187462
-3.87854e-06, 0.0178376
-3.84855e-06, 0.0170126
-3.81855e-06, 0.0163189
-3.78856e-06, 0.0157994
-3.75856e-06, 0.015492
-3.72857e-06, 0.0154285
-3.69858e-06, 0.0156329
-3.66858e-06, 0.0161167
-3.63859e-06, 0.0168759
-3.6086e-06, 0.0178894
-3.5786e-06, 0.0191206
-3.54861e-06, 0.0205214
-3.51861e-06, 0.0220364
-3.48862e-06, 0.023608
-3.45863e-06, 0.0251798
-3.42863e-06, 0.0266997
-3.39864e-06, 0.0281222
-3.36865e-06, 0.02941
-3.33865e-06, 0.0305347
-3.30866e-06, 0.0314772
-3.27866e-06, 0.032227
-3.24867e-06, 0.0327806
-3.21868e-06, 0.03314
-3.18868e-06, 0.0333094
-3.15869e-06, 0.0332937
-3.1287e-06, 0.0330947
-3.0987e-06, 0.0327102
-3.06871e-06, 0.0321325
-3.03871e-06, 0.0313484
-3.00872e-06, 0.0303408
-2.97873e-06, 0.0290911
-2.94873e-06, 0.0275832
-2.91874e-06, 0.0258074
-2.88875e-06, 0.0237668
-2.85875e-06, 0.021485
-2.82876e-06, 0.0190181
-2.79876e-06, 0.0164761
-2.76877e-06, 0.0140637
-2.73878e-06, 0.0121432
-2.70878e-06, 0.011249
-2.67879e-06, 0.0118218
-2.6488e-06, 0.0137797
-2.6188e-06, 0.0166539
-2.58881e-06, 0.0200012
-2.55881e-06, 0.0235227
-2.52882e-06, 0.0270233
-2.49883e-06, 0.0303674
-2.46883e-06, 0.0334553
-2.43884e-06, 0.0362111
-2.40885e-06, 0.0385769
-2.37885e-06, 0.0405103
-2.34886e-06, 0.0419816
-2.31886e-06, 0.0429726
-2.28887e-06, 0.0434748
-2.25888e-06, 0.0434877
-2.22888e-06, 0.0430171
-2.19889e-06, 0.0420736
-2.1689e-06, 0.040671
-2.1389e-06, 0.038826
-2.10891e-06, 0.0365568
-2.07891e-06, 0.0338843
-2.04892e-06, 0.0308319
-2.01893e-06, 0.0274274
-1.98893e-06, 0.0237046
-1.95894e-06, 0.0197068
-1.92895e-06, 0.0154934
-1.89895e-06, 0.0111585
-1.86896e-06, 0.00691858
-1.83896e-06, 0.00376716
-1.80897e-06, 0.00500231
-1.77898e-06, 0.00888553
-1.74898e-06, 0.0130932
-1.71899e-06, 0.0171714
-1.689e-06, 0.0209513
-1.659e-06, 0.0243201
-1.62901e-06, 0.0271869
-1.59901e-06, 0.0294753
-1.56902e-06, 0.031124
-1.53903e-06, 0.0320879
-1.50903e-06, 0.0323406
-1.47904e-06, 0.0318768
-1.44905e-06, 0.0307148
-1.41905e-06, 0.0289004
-1.38906e-06, 0.0265134
-1.35906e-06, 0.0236791
-1.32907e-06, 0.0205937
-1.29908e-06, 0.0175745
-1.26908e-06, 0.0151415
-1.23909e-06, 0.014029
-1.2091e-06, 0.0148037
-1.1791e-06, 0.0173015
-1.14911e-06, 0.0208712
-1.11911e-06, 0.0249292
-1.08912e-06, 0.0290914
-1.05913e-06, 0.0331109
-1.02913e-06, 0.0368196
-9.99139e-07, 0.0400968
-9.69145e-07, 0.0428538
-9.39152e-07, 0.045027
-9.09158e-07, 0.0465732
-8.79164e-07, 0.0474683
-8.4917e-07, 0.0477057
-8.19177e-07, 0.0472964
-7.89183e-07, 0.0462692
-7.59189e-07, 0.0446727
-7.29195e-07, 0.0425784
-6.99202e-07, 0.0400868
-6.69208e-07, 0.0373375
-6.39214e-07, 0.0345227
-6.0922e-07, 0.0319047
-5.79227e-07, 0.029824
-5.49233e-07, 0.0286713
-5.19239e-07, 0.0287875
-4.89245e-07, 0.0303209
-4.59252e-07, 0.0331651
-4.29258e-07, 0.037041
-3.99264e-07, 0.0416259
-3.6927e-07, 0.046631
-3.39277e-07, 0.0518216
-3.09283e-07, 0.0570128
-2.79289e-07, 0.0620582
-2.49295e-07, 0.0668431
-2.19302e-07, 0.0712775
-1.89308e-07, 0.0752938
-1.59314e-07, 0.0788444
-1.2932e-07, 0.0819012
-9.93266e-08, 0.0844543
-6.93329e-08, 0.0865119
-3.93392e-08, 0.0880992
-9.3454e-09, 0.0892577
2.06483e-08, 0.0900436
5.06421e-08, 0.0905267
8.06358e-08, 0.0907873
1.1063e-07, 0.0909144
1.40623e-07, 0.0910017
1.70617e-07, 0.0911434
2.00611e-07, 0.0914297
2.30605e-07, 0.0919412
2.60598e-07, 0.0927436
2.90592e-07, 0.0938829
3.20586e-07, 0.0953818
3.5058e-07, 0.0972379
3.80573e-07, 0.0994235
4.10567e-07, 0.101888
4.40561e-07, 0.104563
4.70555e-07, 0.107361
5.00548e-07, 0.110187
5.30542e-07, 0.112941
5.60536e-07, 0.115518
5.9053e-07, 0.11782
6.20523e-07, 0.11975
6.50517e-07, 0.121223
6.80511e-07, 0.122163
7.10505e-07, 0.122507
7.40498e-07, 0.122207
7.70492e-07, 0.121228
8.00486e-07, 0.119552
8.3048e-07, 0.117177
8.60473e-07, 0.114115
8.90467e-07, 0.110396
9.20461e-07, 0.106061
9.50455e-07, 0.101167
9.80448e-07, 0.0957871
1.01044e-06, 0.0900084
1.04044e-06, 0.0839371
1.07043e-06, 0.077703
1.10042e-06, 0.0714666
1.13042e-06, 0.0654314
1.16041e-06, 0.059857
1.1904e-06, 0.0550695
1.2204e-06, 0.051453
1.25039e-06, 0.049396
1.28039e-06, 0.0491827
1.31038e-06, 0.0508764
1.34037e-06, 0.0542923
1.37037e-06, 0.0590837
1.40036e-06, 0.0648618
1.43035e-06, 0.0712732
1.46035e-06, 0.0780256
1.49034e-06, 0.0848846
1.52034e-06, 0.091663
1.55033e-06, 0.0982096
1.58032e-06, 0.104401
1.61032e-06, 0.110138
1.64031e-06, 0.115338
1.6703e-06, 0.119939
1.7003e-06, 0.123891
1.73029e-06, 0.127163
1.76029e-06, 0.129735
1.79028e-06, 0.131605
1.82027e-06, 0.13278
1.85027e-06, 0.13328
1.88026e-06, 0.133137
1.91025e-06, 0.132394
1.94025e-06, 0.1311
1.97024e-06, 0.129315
2.00024e-06, 0.127104
2.03023e-06, 0.12454
2.06022e-06, 0.1217
2.09022e-06, 0.118664
2.12021e-06, 0.115514
2.1502e-06, 0.112335
2.1802e-06, 0.109207
2.21019e-06, 0.106208
2.24019e-06, 0.103407
2.27018e-06, 0.100864
2.30017e-06, 0.0986242
2.33017e-06, 0.0967158
2.36016e-06, 0.0951503
2.39015e-06, 0.0939215
2.42015e-06, 0.0930073
2.45014e-06, 0.0923728
2.48014e-06, 0.0919752
2.51013e-06, 0.0917683
2.54012e-06, 0.0917072
2.57012e-06, 0.0917526
2.60011e-06, 0.0918739
2.6301e-06, 0.0920507
2.6601e-06, 0.0922744
2.69009e-06, 0.0925477
2.72009e-06, 0.0928833
2.75008e-06, 0.0933024
2.78007e-06, 0.093832
2.81007e-06, 0.0945017
2.84006e-06, 0.0953407
2.87005e-06, 0.0963742
2.90005e-06, 0.0976201
2.93004e-06, 0.0990866
2.96004e-06, 0.10077
2.99003e-06, 0.102653
3.02002e-06, 0.104704
3.05002e-06, 0.106881
3.08001e-06, 0.109128
3.11e-06, 0.11138
3.14e-06, 0.113565
3.16999e-06, 0.115605
3.19999e-06, 0.117423
3.22998e-06, 0.11894
3.25997e-06, 0.120081
3.28997e-06, 0.120778
3.31996e-06, 0.120971
3.34995e-06, 0.120611
3.37995e-06, 0.119662
3.40994e-06, 0.1181
3.43994e-06, 0.115918
3.46993e-06, 0.113128
3.49992e-06, 0.109757
3.52992e-06, 0.105854
3.55991e-06, 0.101488
3.5899e-06, 0.0967507
3.6199e-06, 0.0917611
3.64989e-06, 0.0866663
3.67989e-06, 0.0816466
3.70988e-06, 0.0769179
3.73987e-06, 0.0727301
3.76987e-06, 0.069356
3.79986e-06, 0.0670648
3.82985e-06, 0.0660782
3.85985e-06, 0.0665194
3.88984e-06, 0.0683809
3.91984e-06, 0.0715286
3.94983e-06, 0.0757404
3.97982e-06, 0.0807554
4.00982e-06, 0.0863127
4.03981e-06, 0.0921729
4.0698e-06, 0.0981263
4.0998e-06, 0.103992
4.12979e-06, 0.109617
4.15979e-06, 0.11487
4.18978e-06, 0.11964
4.21977e-06, 0.123835
4.24977e-06, 0.127378
4.27976e-06, 0.130208
4.30975e-06, 0.132281
4.33975e-06, 0.133565
4.36974e-06, 0.134044
4.39974e-06, 0.133716
4.42973e-06, 0.132592
4.45972e-06, 0.130698
4.48972e-06, 0.128072
4.51971e-06, 0.124767
4.5497e-06, 0.120846
4.5797e-06, 0.11639
4.60969e-06, 0.111492
4.63969e-06, 0.106261
4.66968e-06, 0.100824
4.69967e-06, 0.0953296
4.72967e-06, 0.0899475
4.75966e-06, 0.0848706
4.78965e-06, 0.0803116
4.81965e-06, 0.0764927
4.84964e-06, 0.0736249
4.87964e-06, 0.0718774
4.90963e-06, 0.0713431
4.93962e-06, 0.0720142
4.96962e-06, 0.0737817
4.99961e-06, 0.0764583
5.0296e-06, 0.0798143
5.0596e-06, 0.0836118
5.08959e-06, 0.0876279
5.11959e-06, 0.0916675
5.14958e-06, 0.095567
5.17957e-06, 0.0991945
5.20957e-06, 0.102447
5.23956e-06, 0.105249
5.26955e-06, 0.107548
5.29955e-06, 0.10931
5.32954e-06, 0.110522
5.35954e-06, 0.111187
5.38953e-06, 0.111321
5.41952e-06, 0.110952
5.44952e-06, 0.11012
5.47951e-06, 0.108876
5.5095e-06, 0.107278
5.5395e-06, 0.105394
5.56949e-06, 0.103298
5.59949e-06, 0.101072
5.62948e-06, 0.0988049
5.65947e-06, 0.0965887
5.68947e-06, 0.0945181
5.71946e-06, 0.0926852
5.74945e-06, 0.0911754
5.77945e-06, 0.0900607
5.80944e-06, 0.0893932
5.83944e-06, 0.0892003
5.86943e-06, 0.0894808
5.89942e-06, 0.0902049
5.92942e-06, 0.0913177
5.95941e-06, 0.0927441
5.9894e-06, 0.094397
6.0194e-06, 0.0961838
6.04939e-06, 0.0980137
6.07939e-06, 0.0998031
6.10938e-06, 0.101479
6.13937e-06, 0.102984
6.16937e-06, 0.104273
6.19936e-06, 0.105319
6.22935e-06, 0.10611
6.25935e-06, 0.106647
6.28934e-06, 0.106946
6.31934e-06, 0.107035
6.34933e-06, 0.10695
6.37932e-06, 0.106735
6.40932e-06, 0.106436
6.43931e-06, 0.106104
6.4693e-06, 0.105786
6.4993e-06, 0.105526
6.52929e-06, 0.105358
6.55929e-06, 0.105308
6.58928e-06, 0.105391
6.61927e-06, 0.105607
6.64927e-06, 0.105943
6.67926e-06, 0.106373
6.70925e-06, 0.10686
6.73925e-06, 0.107357
6.76924e-06, 0.107813
6.79924e-06, 0.108172
6.82923e-06, 0.108377
6.85922e-06, 0.108376
6.88922e-06, 0.108122
6.91921e-06, 0.107576
6.9492e-06, 0.106711
6.9792e-06, 0.105513
7.00919e-06, 0.103982
7.03919e-06, 0.102134
7.06918e-06, 0.100004
7.09917e-06, 0.0976451
7.12917e-06, 0.0951284
7.15916e-06, 0.0925461
7.18915e-06, 0.0900087
7.21915e-06, 0.0876427
7.24914e-06, 0.0855865
7.27914e-06, 0.0839813
7.30913e-06, 0.0829604
7.33912e-06, 0.0826343
7.36912e-06, 0.0830769
7.39911e-06, 0.0843142
7.4291e-06, 0.0863203
7.4591e-06, 0.0890215
7.48909e-06, 0.0923057
7.51909e-06, 0.0960353
7.54908e-06, 0.10006
7.57907e-06, 0.104225
7.60907e-06, 0.108381
7.63906e-06, 0.112387
7.66905e-06, 0.116115
7.69905e-06, 0.119447
7.72904e-06, 0.122282
7.75904e-06, 0.124536
7.78903e-06, 0.126136
7.81902e-06, 0.127031
7.84902e-06, 0.127182
7.87901e-06, 0.126568
7.909e-06, 0.125186
7.939e-06, 0.123045
7.96899e-06, 0.120174
7.99899e-06, 0.116615
8.02898e-06, 0.112423
8.05897e-06, 0.107672
8.08897e-06, 0.102446
8.11896e-06, 0.0968511
8.14895e-06, 0.0910093
8.17895e-06, 0.0850683
8.20894e-06, 0.0792059
8.23894e-06, 0.0736372
8.26893e-06, 0.0686206
8.29892e-06, 0.064454
8.32892e-06, 0.0614535
8.35891e-06, 0.059902
8.3889e-06, 0.0599781
8.4189e-06, 0.0616958
8.44889e-06, 0.0649003
8.47889e-06, 0.0693201
8.50888e-06, 0.0746379
8.53887e-06, 0.0805445
8.56887e-06, 0.086765
8.59886e-06, 0.0930649
8.62885e-06, 0.0992475
8.65885e-06, 0.105148
8.68884e-06, 0.11063
8.71884e-06, 0.115578
8.74883e-06, 0.1199
8.77882e-06, 0.123523
8.80882e-06, 0.126391
8.83881e-06, 0.128465
8.8688e-06, 0.129726
8.8988e-06, 0.130169
8.92879e-06, 0.129806
8.95879e-06, 0.128663
8.98878e-06, 0.126781
9.01877e-06, 0.124216
9.04877e-06, 0.121034
9.07876e-06, 0.117316
9.10875e-06, 0.113156
9.13875e-06, 0.108656
9.16874e-06, 0.103935
9.19874e-06, 0.0991226
9.22873e-06, 0.0943602
9.25872e-06, 0.0898014
9.28872e-06, 0.0856078
9.31871e-06, 0.0819425
9.3487e-06, 0.0789593
9.3787e-06, 0.0767876
9.40869e-06, 0.0755142
9.43868e-06, 0.0751695
9.46868e-06, 0.0757205
9.49867e-06, 0.0770766
9.52867e-06, 0.0791047
9.55866e-06, 0.0816489
9.58865e-06, 0.0845487
9.61865e-06, 0.087653
9.64864e-06, 0.0908278
9.67863e-06, 0.0939601
9.70863e-06, 0.0969589
9.73862e-06, 0.0997542
9.76862e-06, 0.102296
9.79861e-06, 0.10455
9.8286e-06, 0.106501
9.8586e-06, 0.108143
9.88859e-06, 0.109485
9.91858e-06, 0.110544
9.94858e-06, 0.111344
9.97857e-06, 0.111916
1.00086e-05, 0.112295
1.00386e-05, 0.112515
1.00686e-05, 0.112613
1.00985e-05, 0.112621
1.01285e-05, 0.112567
1.01585e-05, 0.112473
1.01885e-05, 0.112353
1.02185e-05, 0.112214
1.02485e-05, 0.11205
1.02785e-05, 0.111851
1.03085e-05, 0.111596
1.03385e-05, 0.11126
1.03685e-05, 0.110812
1.03985e-05, 0.110221
1.04285e-05, 0.109455
1.04585e-05, 0.108487
1.04885e-05, 0.107296
1.05185e-05, 0.105869
1.05485e-05, 0.104204
1.05784e-05, 0.102311
1.06084e-05, 0.100214
1.06384e-05, 0.09795
1.06684e-05, 0.0955737
1.06984e-05, 0.0931532
1.07284e-05, 0.0907712
1.07584e-05, 0.0885225
1.07884e-05, 0.0865109
1.08184e-05, 0.0848436
1.08484e-05, 0.0836241
1.08784e-05, 0.0829433
1.09084e-05, 0.0828704
1.09384e-05, 0.0834443
1.09684e-05, 0.0846693
1.09984e-05, 0.0865139
1.10284e-05, 0.0889147
1.10583e-05, 0.0917835
1.10883e-05, 0.0950147
1.11183e-05, 0.0984937
1.11483e-05, 0.102102
1.11783e-05, 0.105724
1.12083e-05, 0.109247
1.12383e-05, 0.112567
1.12683e-05, 0.115588
1.12983e-05, 0.118223
1.13283e-05, 0.120396
1.13583e-05, 0.122042
1.13883e-05, 0.12311
1.14183e-05, 0.123559
1.14483e-05, 0.123362
1.14783e-05, 0.122508
1.15083e-05, 0.120999
1.15382e-05, 0.118852
1.15682e-05, 0.116101
1.15982e-05, 0.112794
1.16282e-05, 0.109
1.16582e-05, 0.104804
1.16882e-05, 0.100312
1.17182e-05, 0.0956515
1.17482e-05, 0.0909735
1.17782e-05, 0.0864533
1.18082e-05, 0.0822881
1.18382e-05, 0.0786899
1.18682e-05, 0.0758705
1.18982e-05, 0.0740171
1.19282e-05, 0.0732619
1.19582e-05, 0.0736546
1.19882e-05, 0.0751504
1.20181e-05, 0.0776195
1.20481e-05, 0.0808734
1.20781e-05, 0.0846958
1.21081e-05, 0.0888692
1.21381e-05, 0.0931912
1.21681e-05, 0.0974828
1.21981e-05, 0.101592
1.22281e-05, 0.105391
1.22581e-05, 0.108779
1.22881e-05, 0.111676
1.23181e-05, 0.114022
1.23481e-05, 0.115778
1.23781e-05, 0.116921
1.24081e-05, 0.117442
1.24381e-05, 0.117351
1.24681e-05, 0.116668
1.2498e-05, 0.115428
1.2528e-05, 0.113676
1.2558e-05, 0.111473
1.2588e-05, 0.108887
1.2618e-05, 0.106
1.2648e-05, 0.102906
1.2678e-05, 0.0997104
1.2708e-05, 0.0965289
1.2738e-05, 0.0934865
1.2768e-05, 0.0907132
1.2798e-05, 0.0883373
1.2828e-05, 0.0864772
1.2858e-05, 0.0852286
1.2888e-05, 0.0846541
1.2918e-05, 0.0847728
1.2948e-05, 0.0855571
1.29779e-05, 0.0869354
1.30079e-05, 0.0888002
1.30379e-05, 0.0910212
1.30679e-05, 0.0934571
1.30979e-05, 0.0959669
1.31279e-05, 0.0984185
1.31579e-05, 0.100694
1.31879e-05, 0.102693
1.32179e-05, 0.104336
1.32479e-05, 0.105561
1.32779e-05, 0.106331
1.33079e-05, 0.106625
1.33379e-05, 0.106443
1.33679e-05, 0.105803
1.33979e-05, 0.104741
1.34279e-05, 0.103307
1.34578e-05, 0.101566
1.34878e-05, 0.0995973
1.35178e-05, 0.0974891
1.35478e-05, 0.0953387
1.35778e-05, 0.0932483
1.36078e-05, 0.0913215
1.36378e-05, 0.0896575
1.36678e-05, 0.0883458
1.36978e-05, 0.0874591
1.37278e-05, 0.0870469
1.37578e-05, 0.087131
1.37878e-05, 0.0877034
1.38178e-05, 0.0887267
1.38478e-05, 0.0901383
1.38778e-05, 0.091856
1.39078e-05, 0.0937853
1.39377e-05, 0.0958257
1.39677e-05, 0.0978768
1.39977e-05, 0.0998427
1.40277e-05, 0.101636
1.40577e-05, 0.10318
1.40877e-05, 0.10441
1.41177e-05, 0.105277
1.41477e-05, 0.105744
1.41777e-05, 0.10579
1.42077e-05, 0.10541
1.42377e-05, 0.104613
1.42677e-05, 0.103424
1.42977e-05, 0.101884
1.43277e-05, 0.100047
1.43577e-05, 0.0979821
1.43877e-05, 0.0957707
1.44176e-05, 0.0935066
1.44476e-05, 0.0912921
1.44776e-05, 0.0892348
1.45076e-05, 0.0874425
1.45376e-05, 0.0860159
1.45676e-05, 0.0850407
1.45976e-05, 0.0845794
1.46276e-05, 0.084664
1.46576e-05, 0.0852927
1.46876e-05, 0.0864294
1.47176e-05, 0.088008
1.47476e-05, 0.0899399
1.47776e-05, 0.0921216
1.48076e-05, 0.0944435
1.48376e-05, 0.0967965
1.48676e-05, 0.0990778
1.48975e-05, 0.101194
1.49275e-05, 0.103064
1.49575e-05, 0.104621
1.49875e-05, 0.105812
1.50175e-05, 0.106601
1.50475e-05, 0.106964
1.50775e-05, 0.106894
1.51075e-05, 0.106399
1.51375e-05, 0.105501
1.51675e-05, 0.104236
1.51975e-05, 0.102654
1.52275e-05, 0.100815
1.52575e-05, 0.0987941
1.52875e-05, 0.0966757
1.53175e-05, 0.0945526
1.53475e-05, 0.0925236
1.53774e-05, 0.0906893
1.54074e-05, 0.0891466
1.54374e-05, 0.0879827
1.54674e-05, 0.0872672
1.54974e-05, 0.0870458
1.55274e-05, 0.087335
1.55574e-05, 0.0881198
1.55874e-05, 0.0893554
1.56174e-05, 0.0909709
1.56474e-05, 0.0928768
1.56774e-05, 0.094972
1.57074e-05, 0.0971505
1.57374e-05, 0.0993084
1.57674e-05, 0.101348
1.57974e-05, 0.10318
1.58274e-05, 0.10473
1.58573e-05, 0.105934
1.58873e-05, 0.106747
1.59173e-05, 0.107135
1.59473e-05, 0.107083
1.59773e-05, 0.10659
1.60073e-05, 0.105672
1.60373e-05, 0.104358
1.60673e-05, 0.102695
1.60973e-05, 0.100741
1.61273e-05, 0.098571
1.61573e-05, 0.0962692
1.61873e-05, 0.0939321
1.62173e-05, 0.0916639
1.62473e-05, 0.0895725
1.62773e-05, 0.0877652
1.63073e-05, 0.0863408
1.63372e-05, 0.0853826
1.63672e-05, 0.0849499
1.63972e-05, 0.0850721
1.64272e-05, 0.0857446
1.64572e-05, 0.0869297
1.64872e-05, 0.0885608
1.65172e-05, 0.090549
1.65472e-05, 0.0927914
1.65772e-05, 0.0951783
1.66072e-05, 0.0976007
1.66372e-05, 0.0999543
1.66672e-05, 0.102144
1.66972e-05, 0.104085
1.67272e-05, 0.105705
1.67572e-05, 0.106947
1.67872e-05, 0.107767
1.68171e-05, 0.108134
1.68471e-05, 0.108035
1.68771e-05, 0.107469
1.69071e-05, 0.106451
1.69371e-05, 0.105011
1.69671e-05, 0.103194
1.69971e-05, 0.10106
1.70271e-05, 0.0986836
1.70571e-05, 0.0961529
1.70871e-05, 0.0935695
1.71171e-05, 0.0910455
1.71471e-05, 0.0886997
1.71771e-05, 0.0866516
1.72071e-05, 0.0850136
1.72371e-05, 0.0838811
